Compliance	Volume Fraction	Max Stress	Stress Integral 4	Stress Integral 12	Stress Integral 40
1.283e-05	0.1474	9.616e+01	1.393e+01	4.342e+01	7.549e+01
3.878e-06	0.1645	3.408e+02	5.391e+01	1.765e+02	2.796e+02
2.517e-06	0.1784	3.420e+02	5.401e+01	1.770e+02	2.805e+02
2.037e-06	0.1867	3.353e+02	5.330e+01	1.736e+02	2.751e+02
1.657e-06	0.1919	3.296e+02	5.341e+01	1.710e+02	2.706e+02
1.395e-06	0.1938	3.207e+02	5.332e+01	1.667e+02	2.633e+02
9.042e-07	0.1987	2.871e+02	5.138e+01	1.503e+02	2.359e+02
7.951e-07	0.1989	2.813e+02	5.138e+01	1.477e+02	2.311e+02
6.715e-07	0.1995	2.675e+02	5.051e+01	1.412e+02	2.199e+02
5.596e-07	0.2004	2.509e+02	4.936e+01	1.337e+02	2.063e+02
5.094e-07	0.2009	2.446e+02	4.897e+01	1.310e+02	2.011e+02
4.724e-07	0.2014	2.372e+02	4.846e+01	1.278e+02	1.950e+02
4.436e-07	0.2016	2.318e+02	4.813e+01	1.256e+02	1.906e+02
4.122e-07	0.2018	2.258e+02	4.774e+01	1.231e+02	1.858e+02
3.940e-07	0.2019	2.235e+02	4.763e+01	1.220e+02	1.839e+02
3.751e-07	0.2021	2.216e+02	4.758e+01	1.211e+02	1.824e+02
3.526e-07	0.2025	2.175e+02	4.738e+01	1.191e+02	1.790e+02
3.409e-07	0.2024	2.158e+02	4.736e+01	1.183e+02	1.776e+02
3.279e-07	0.2025	2.145e+02	4.737e+01	1.177e+02	1.765e+02
3.161e-07	0.2027	2.134e+02	4.734e+01	1.172e+02	1.756e+02
3.078e-07	0.2027	2.124e+02	4.728e+01	1.168e+02	1.748e+02
3.017e-07	0.2025	2.118e+02	4.724e+01	1.165e+02	1.743e+02
2.970e-07	0.2023	2.117e+02	4.724e+01	1.164e+02	1.743e+02
2.919e-07	0.2022	2.116e+02	4.724e+01	1.163e+02	1.742e+02
2.898e-07	0.2021	2.116e+02	4.724e+01	1.163e+02	1.742e+02
2.853e-07	0.2020	2.120e+02	4.731e+01	1.164e+02	1.745e+02
2.842e-07	0.2019	2.121e+02	4.732e+01	1.164e+02	1.746e+02
2.806e-07	0.2021	2.121e+02	4.735e+01	1.164e+02	1.746e+02
2.797e-07	0.2021	2.123e+02	4.737e+01	1.165e+02	1.747e+02
2.792e-07	0.2020	2.123e+02	4.738e+01	1.165e+02	1.747e+02
2.791e-07	0.2015	2.126e+02	4.745e+01	1.167e+02	1.750e+02
2.793e-07	0.2011	2.125e+02	4.747e+01	1.167e+02	1.749e+02
2.797e-07	0.2008	2.122e+02	4.748e+01	1.166e+02	1.747e+02
2.799e-07	0.2007	2.120e+02	4.748e+01	1.165e+02	1.745e+02
2.799e-07	0.2007	2.120e+02	4.748e+01	1.165e+02	1.745e+02
2.807e-07	0.2004	2.124e+02	4.752e+01	1.167e+02	1.749e+02
2.813e-07	0.2002	2.124e+02	4.751e+01	1.167e+02	1.748e+02
2.815e-07	0.2002	2.124e+02	4.752e+01	1.167e+02	1.749e+02
2.817e-07	0.2001	2.125e+02	4.752e+01	1.167e+02	1.749e+02
2.817e-07	0.2001	2.125e+02	4.752e+01	1.167e+02	1.749e+02
2.817e-07	0.2001	2.124e+02	4.752e+01	1.167e+02	1.749e+02
2.817e-07	0.2001	2.124e+02	4.752e+01	1.167e+02	1.749e+02
2.819e-07	0.2000	2.124e+02	4.752e+01	1.167e+02	1.748e+02
2.820e-07	0.2000	2.123e+02	4.752e+01	1.167e+02	1.748e+02
2.820e-07	0.2000	2.124e+02	4.752e+01	1.167e+02	1.748e+02
2.820e-07	0.2000	2.124e+02	4.752e+01	1.167e+02	1.748e+02
2.820e-07	0.2000	2.123e+02	4.752e+01	1.167e+02	1.748e+02
2.820e-07	0.2000	2.123e+02	4.752e+01	1.167e+02	1.748e+02
2.820e-07	0.2000	2.122e+02	4.751e+01	1.167e+02	1.747e+02
2.820e-07	0.2000	2.123e+02	4.751e+01	1.167e+02	1.747e+02
2.820e-07	0.2000	2.122e+02	4.751e+01	1.167e+02	1.747e+02
2.820e-07	0.2000	2.121e+02	4.751e+01	1.166e+02	1.746e+02
2.820e-07	0.2000	2.116e+02	4.747e+01	1.164e+02	1.742e+02
2.820e-07	0.2000	2.116e+02	4.747e+01	1.164e+02	1.742e+02
2.820e-07	0.2000	2.118e+02	4.748e+01	1.165e+02	1.744e+02
2.821e-07	0.2000	2.121e+02	4.750e+01	1.166e+02	1.746e+02
2.820e-07	0.2000	2.120e+02	4.749e+01	1.165e+02	1.745e+02
2.820e-07	0.2000	2.119e+02	4.748e+01	1.165e+02	1.745e+02
2.820e-07	0.2000	2.119e+02	4.748e+01	1.165e+02	1.745e+02
2.820e-07	0.2000	2.119e+02	4.748e+01	1.165e+02	1.745e+02
2.820e-07	0.2000	2.119e+02	4.748e+01	1.165e+02	1.745e+02
2.821e-07	0.2000	2.119e+02	4.748e+01	1.165e+02	1.745e+02
2.820e-07	0.2000	2.119e+02	4.749e+01	1.165e+02	1.745e+02
2.820e-07	0.2000	2.120e+02	4.749e+01	1.166e+02	1.745e+02
2.820e-07	0.2000	2.120e+02	4.749e+01	1.166e+02	1.745e+02
2.820e-07	0.2000	2.120e+02	4.749e+01	1.166e+02	1.745e+02
2.820e-07	0.2000	2.120e+02	4.749e+01	1.166e+02	1.745e+02
2.820e-07	0.2000	2.120e+02	4.749e+01	1.166e+02	1.745e+02
2.820e-07	0.2000	2.120e+02	4.749e+01	1.166e+02	1.745e+02
2.820e-07	0.2000	2.121e+02	4.749e+01	1.166e+02	1.746e+02
2.820e-07	0.2000	2.121e+02	4.749e+01	1.166e+02	1.746e+02
2.820e-07	0.2000	2.121e+02	4.749e+01	1.166e+02	1.746e+02
2.820e-07	0.2000	2.121e+02	4.749e+01	1.166e+02	1.746e+02
2.820e-07	0.2000	2.120e+02	4.749e+01	1.166e+02	1.745e+02
2.820e-07	0.2000	2.120e+02	4.749e+01	1.166e+02	1.745e+02
2.820e-07	0.2000	2.120e+02	4.749e+01	1.166e+02	1.745e+02
2.820e-07	0.2000	2.120e+02	4.749e+01	1.166e+02	1.745e+02
2.820e-07	0.2000	2.120e+02	4.749e+01	1.166e+02	1.745e+02
2.820e-07	0.2000	2.120e+02	4.749e+01	1.166e+02	1.746e+02
2.820e-07	0.2000	2.121e+02	4.749e+01	1.166e+02	1.746e+02
2.820e-07	0.2000	2.121e+02	4.749e+01	1.166e+02	1.746e+02
2.820e-07	0.2000	2.121e+02	4.749e+01	1.166e+02	1.746e+02
2.820e-07	0.2000	2.121e+02	4.749e+01	1.166e+02	1.746e+02
2.820e-07	0.2000	2.121e+02	4.749e+01	1.166e+02	1.746e+02
2.820e-07	0.2000	2.121e+02	4.749e+01	1.166e+02	1.746e+02
2.820e-07	0.2000	2.121e+02	4.749e+01	1.166e+02	1.746e+02
2.820e-07	0.2000	2.121e+02	4.749e+01	1.166e+02	1.746e+02
2.820e-07	0.2000	2.121e+02	4.749e+01	1.166e+02	1.746e+02
2.820e-07	0.2000	2.120e+02	4.749e+01	1.166e+02	1.746e+02
2.820e-07	0.2000	2.120e+02	4.749e+01	1.166e+02	1.746e+02
2.820e-07	0.2000	2.120e+02	4.749e+01	1.166e+02	1.746e+02
2.820e-07	0.2000	2.120e+02	4.749e+01	1.166e+02	1.746e+02
2.820e-07	0.2000	2.120e+02	4.749e+01	1.166e+02	1.746e+02
2.328e-07	0.1987	2.083e+02	4.823e+01	1.162e+02	1.718e+02
2.321e-07	0.2005	2.080e+02	4.816e+01	1.160e+02	1.716e+02
2.326e-07	0.2003	2.081e+02	4.817e+01	1.161e+02	1.716e+02
2.332e-07	0.2000	2.074e+02	4.807e+01	1.157e+02	1.710e+02
2.310e-07	0.2000	2.064e+02	4.799e+01	1.153e+02	1.702e+02
2.276e-07	0.1999	2.053e+02	4.794e+01	1.149e+02	1.694e+02
2.265e-07	0.1999	2.048e+02	4.791e+01	1.147e+02	1.689e+02
2.259e-07	0.1999	2.048e+02	4.792e+01	1.147e+02	1.689e+02
2.258e-07	0.1998	2.050e+02	4.795e+01	1.148e+02	1.691e+02
2.254e-07	0.1998	2.048e+02	4.796e+01	1.148e+02	1.690e+02
2.256e-07	0.1997	2.039e+02	4.791e+01	1.144e+02	1.682e+02
2.256e-07	0.1997	2.039e+02	4.791e+01	1.144e+02	1.682e+02
2.256e-07	0.1998	2.039e+02	4.791e+01	1.144e+02	1.682e+02
2.256e-07	0.1998	2.039e+02	4.791e+01	1.144e+02	1.682e+02
2.254e-07	0.1998	2.043e+02	4.794e+01	1.145e+02	1.686e+02
2.254e-07	0.1998	2.046e+02	4.795e+01	1.146e+02	1.688e+02
2.247e-07	0.1998	2.045e+02	4.795e+01	1.146e+02	1.687e+02
2.244e-07	0.1999	2.044e+02	4.795e+01	1.146e+02	1.686e+02
2.244e-07	0.1999	2.044e+02	4.795e+01	1.146e+02	1.686e+02
2.242e-07	0.1999	2.045e+02	4.796e+01	1.146e+02	1.687e+02
2.241e-07	0.1999	2.045e+02	4.796e+01	1.146e+02	1.687e+02
2.239e-07	0.2000	2.046e+02	4.797e+01	1.146e+02	1.688e+02
2.239e-07	0.2000	2.046e+02	4.797e+01	1.146e+02	1.688e+02
2.239e-07	0.2000	2.047e+02	4.797e+01	1.147e+02	1.689e+02
2.238e-07	0.2000	2.047e+02	4.797e+01	1.147e+02	1.688e+02
2.238e-07	0.2000	2.047e+02	4.797e+01	1.147e+02	1.688e+02
2.238e-07	0.2000	2.048e+02	4.798e+01	1.147e+02	1.689e+02
2.238e-07	0.2000	2.048e+02	4.798e+01	1.147e+02	1.690e+02
2.238e-07	0.2000	2.048e+02	4.798e+01	1.147e+02	1.690e+02
2.238e-07	0.2000	2.055e+02	4.805e+01	1.151e+02	1.695e+02
2.238e-07	0.2000	2.057e+02	4.806e+01	1.151e+02	1.697e+02
2.238e-07	0.2000	2.051e+02	4.801e+01	1.149e+02	1.692e+02
2.239e-07	0.2000	2.048e+02	4.798e+01	1.147e+02	1.689e+02
2.239e-07	0.2000	2.048e+02	4.798e+01	1.147e+02	1.689e+02
2.238e-07	0.2000	2.052e+02	4.801e+01	1.149e+02	1.692e+02
2.238e-07	0.2000	2.052e+02	4.802e+01	1.149e+02	1.693e+02
2.238e-07	0.2000	2.052e+02	4.802e+01	1.149e+02	1.693e+02
2.238e-07	0.2000	2.052e+02	4.802e+01	1.149e+02	1.693e+02
2.238e-07	0.2000	2.052e+02	4.802e+01	1.149e+02	1.693e+02
2.238e-07	0.2000	2.053e+02	4.802e+01	1.149e+02	1.693e+02
2.238e-07	0.2000	2.053e+02	4.802e+01	1.149e+02	1.693e+02
2.238e-07	0.2000	2.053e+02	4.802e+01	1.149e+02	1.693e+02
2.238e-07	0.2000	2.053e+02	4.802e+01	1.149e+02	1.693e+02
2.238e-07	0.2000	2.053e+02	4.802e+01	1.149e+02	1.693e+02
2.238e-07	0.2000	2.052e+02	4.802e+01	1.149e+02	1.693e+02
2.238e-07	0.2000	2.052e+02	4.802e+01	1.149e+02	1.693e+02
2.238e-07	0.2000	2.052e+02	4.802e+01	1.149e+02	1.693e+02
2.238e-07	0.2000	2.052e+02	4.802e+01	1.149e+02	1.693e+02
2.238e-07	0.2000	2.052e+02	4.802e+01	1.149e+02	1.693e+02
2.238e-07	0.2000	2.052e+02	4.802e+01	1.149e+02	1.693e+02
2.238e-07	0.2000	2.052e+02	4.802e+01	1.149e+02	1.693e+02
2.238e-07	0.2000	2.052e+02	4.802e+01	1.149e+02	1.693e+02
2.238e-07	0.2000	2.052e+02	4.802e+01	1.149e+02	1.693e+02
2.238e-07	0.2000	2.052e+02	4.802e+01	1.149e+02	1.693e+02
2.238e-07	0.2000	2.052e+02	4.802e+01	1.149e+02	1.693e+02
2.238e-07	0.2000	2.052e+02	4.802e+01	1.149e+02	1.693e+02
2.238e-07	0.2000	2.052e+02	4.802e+01	1.149e+02	1.693e+02
2.238e-07	0.2000	2.052e+02	4.802e+01	1.149e+02	1.693e+02
2.238e-07	0.2000	2.052e+02	4.802e+01	1.149e+02	1.693e+02
1.737e-07	0.2114	1.989e+02	4.820e+01	1.130e+02	1.654e+02
1.725e-07	0.2121	1.986e+02	4.817e+01	1.129e+02	1.651e+02
1.841e-07	0.2072	1.998e+02	4.835e+01	1.139e+02	1.667e+02
1.899e-07	0.2043	1.996e+02	4.840e+01	1.137e+02	1.662e+02
1.925e-07	0.2024	1.999e+02	4.837e+01	1.137e+02	1.662e+02
2.011e-07	0.1991	1.987e+02	4.828e+01	1.131e+02	1.647e+02
1.965e-07	0.1993	1.968e+02	4.814e+01	1.123e+02	1.634e+02
1.944e-07	0.1995	1.973e+02	4.816e+01	1.126e+02	1.640e+02
1.935e-07	0.1995	1.974e+02	4.815e+01	1.126e+02	1.640e+02
1.928e-07	0.1996	1.970e+02	4.813e+01	1.125e+02	1.638e+02
1.926e-07	0.1996	1.969e+02	4.812e+01	1.124e+02	1.637e+02
1.927e-07	0.1994	1.965e+02	4.809e+01	1.123e+02	1.633e+02
1.927e-07	0.1994	1.965e+02	4.809e+01	1.123e+02	1.633e+02
1.927e-07	0.1994	1.965e+02	4.809e+01	1.123e+02	1.633e+02
1.926e-07	0.1995	1.967e+02	4.810e+01	1.124e+02	1.635e+02
1.923e-07	0.1995	1.962e+02	4.808e+01	1.122e+02	1.631e+02
1.923e-07	0.1994	1.962e+02	4.807e+01	1.122e+02	1.631e+02
1.926e-07	0.1992	1.960e+02	4.805e+01	1.121e+02	1.629e+02
1.925e-07	0.1993	1.959e+02	4.805e+01	1.121e+02	1.629e+02
1.925e-07	0.1993	1.959e+02	4.805e+01	1.121e+02	1.629e+02
1.924e-07	0.1993	1.959e+02	4.805e+01	1.121e+02	1.629e+02
1.924e-07	0.1994	1.961e+02	4.806e+01	1.121e+02	1.630e+02
1.923e-07	0.1994	1.961e+02	4.807e+01	1.122e+02	1.631e+02
1.923e-07	0.1994	1.962e+02	4.807e+01	1.122e+02	1.631e+02
1.926e-07	0.1992	1.962e+02	4.806e+01	1.122e+02	1.630e+02
1.925e-07	0.1992	1.961e+02	4.806e+01	1.122e+02	1.630e+02
1.925e-07	0.1992	1.961e+02	4.806e+01	1.122e+02	1.630e+02
1.924e-07	0.1993	1.962e+02	4.806e+01	1.122e+02	1.631e+02
1.923e-07	0.1994	1.962e+02	4.807e+01	1.122e+02	1.631e+02
1.923e-07	0.1994	1.962e+02	4.807e+01	1.122e+02	1.631e+02
1.923e-07	0.1994	1.962e+02	4.807e+01	1.122e+02	1.631e+02
1.923e-07	0.1994	1.962e+02	4.807e+01	1.122e+02	1.631e+02
1.923e-07	0.1994	1.962e+02	4.807e+01	1.122e+02	1.631e+02
1.923e-07	0.1994	1.962e+02	4.807e+01	1.122e+02	1.631e+02
1.923e-07	0.1994	1.962e+02	4.807e+01	1.122e+02	1.631e+02
1.923e-07	0.1994	1.962e+02	4.807e+01	1.122e+02	1.631e+02
1.923e-07	0.1994	1.962e+02	4.807e+01	1.122e+02	1.631e+02
1.929e-07	0.1991	1.965e+02	4.807e+01	1.123e+02	1.634e+02
1.929e-07	0.1991	1.965e+02	4.807e+01	1.123e+02	1.633e+02
1.929e-07	0.1991	1.965e+02	4.807e+01	1.123e+02	1.633e+02
1.924e-07	0.1993	1.963e+02	4.807e+01	1.122e+02	1.632e+02
1.923e-07	0.1994	1.962e+02	4.807e+01	1.122e+02	1.632e+02
1.923e-07	0.1994	1.962e+02	4.807e+01	1.122e+02	1.631e+02
1.923e-07	0.1994	1.962e+02	4.807e+01	1.122e+02	1.631e+02
1.923e-07	0.1994	1.962e+02	4.807e+01	1.122e+02	1.631e+02
1.923e-07	0.1994	1.962e+02	4.807e+01	1.122e+02	1.631e+02
1.923e-07	0.1994	1.962e+02	4.807e+01	1.122e+02	1.631e+02
1.923e-07	0.1994	1.962e+02	4.807e+01	1.122e+02	1.631e+02
1.923e-07	0.1994	1.962e+02	4.807e+01	1.122e+02	1.631e+02
1.923e-07	0.1994	1.962e+02	4.807e+01	1.122e+02	1.631e+02
1.945e-07	0.1986	1.969e+02	4.811e+01	1.125e+02	1.637e+02
1.943e-07	0.1987	1.969e+02	4.810e+01	1.125e+02	1.637e+02
1.943e-07	0.1987	1.969e+02	4.810e+01	1.125e+02	1.637e+02
1.928e-07	0.1992	1.964e+02	4.807e+01	1.123e+02	1.633e+02
1.924e-07	0.1993	1.963e+02	4.807e+01	1.122e+02	1.632e+02
1.923e-07	0.1994	1.962e+02	4.807e+01	1.122e+02	1.631e+02
1.923e-07	0.1994	1.962e+02	4.807e+01	1.122e+02	1.631e+02
1.923e-07	0.1994	1.962e+02	4.807e+01	1.122e+02	1.631e+02
1.923e-07	0.1994	1.962e+02	4.807e+01	1.122e+02	1.631e+02
1.923e-07	0.1994	1.962e+02	4.807e+01	1.122e+02	1.631e+02
1.923e-07	0.1994	1.962e+02	4.807e+01	1.122e+02	1.631e+02
1.923e-07	0.1994	1.962e+02	4.807e+01	1.122e+02	1.631e+02
1.923e-07	0.1994	1.962e+02	4.807e+01	1.122e+02	1.631e+02
1.942e-07	0.1987	1.987e+02	4.822e+01	1.132e+02	1.651e+02
1.941e-07	0.1988	1.986e+02	4.822e+01	1.132e+02	1.651e+02
1.941e-07	0.1988	1.986e+02	4.822e+01	1.132e+02	1.651e+02
1.927e-07	0.1992	1.973e+02	4.812e+01	1.126e+02	1.640e+02
1.924e-07	0.1993	1.967e+02	4.809e+01	1.124e+02	1.635e+02
1.923e-07	0.1994	1.964e+02	4.808e+01	1.123e+02	1.633e+02
1.923e-07	0.1994	1.963e+02	4.808e+01	1.122e+02	1.632e+02
1.935e-07	0.1988	1.969e+02	4.811e+01	1.125e+02	1.637e+02
1.934e-07	0.1988	1.969e+02	4.811e+01	1.125e+02	1.637e+02
1.934e-07	0.1989	1.969e+02	4.811e+01	1.125e+02	1.637e+02
1.926e-07	0.1992	1.966e+02	4.808e+01	1.124e+02	1.634e+02
1.924e-07	0.1993	1.964e+02	4.808e+01	1.123e+02	1.633e+02
1.923e-07	0.1994	1.964e+02	4.808e+01	1.123e+02	1.633e+02
1.923e-07	0.1994	1.963e+02	4.808e+01	1.122e+02	1.632e+02
1.923e-07	0.1994	1.963e+02	4.808e+01	1.122e+02	1.632e+02
1.923e-07	0.1994	1.963e+02	4.808e+01	1.122e+02	1.632e+02
1.923e-07	0.1994	1.963e+02	4.808e+01	1.122e+02	1.632e+02
1.923e-07	0.1994	1.963e+02	4.808e+01	1.122e+02	1.632e+02
1.923e-07	0.1994	1.963e+02	4.808e+01	1.122e+02	1.632e+02
1.923e-07	0.1994	1.963e+02	4.808e+01	1.122e+02	1.632e+02
1.945e-07	0.1985	1.966e+02	4.809e+01	1.124e+02	1.634e+02
1.944e-07	0.1986	1.965e+02	4.809e+01	1.124e+02	1.634e+02
1.944e-07	0.1986	1.965e+02	4.809e+01	1.124e+02	1.634e+02
1.927e-07	0.1991	1.963e+02	4.806e+01	1.123e+02	1.633e+02
1.924e-07	0.1993	1.963e+02	4.807e+01	1.122e+02	1.632e+02
1.923e-07	0.1994	1.963e+02	4.807e+01	1.122e+02	1.632e+02
1.923e-07	0.1994	1.963e+02	4.807e+01	1.122e+02	1.632e+02
1.923e-07	0.1994	1.963e+02	4.807e+01	1.122e+02	1.632e+02
1.940e-07	0.1986	1.981e+02	4.816e+01	1.130e+02	1.646e+02
1.940e-07	0.1986	1.981e+02	4.816e+01	1.130e+02	1.646e+02
1.940e-07	0.1986	1.981e+02	4.816e+01	1.130e+02	1.646e+02
1.926e-07	0.1992	1.971e+02	4.810e+01	1.126e+02	1.638e+02
1.923e-07	0.1993	1.967e+02	4.808e+01	1.124e+02	1.635e+02
1.923e-07	0.1994	1.965e+02	4.808e+01	1.123e+02	1.634e+02
1.960e-07	0.1982	1.990e+02	4.824e+01	1.133e+02	1.653e+02
1.959e-07	0.1983	1.989e+02	4.824e+01	1.133e+02	1.653e+02
1.959e-07	0.1983	1.989e+02	4.824e+01	1.133e+02	1.653e+02
1.928e-07	0.1990	1.975e+02	4.813e+01	1.127e+02	1.642e+02
1.923e-07	0.1993	1.970e+02	4.810e+01	1.125e+02	1.638e+02
1.922e-07	0.1993	1.967e+02	4.809e+01	1.124e+02	1.635e+02
1.940e-07	0.1987	1.981e+02	4.816e+01	1.130e+02	1.646e+02
1.940e-07	0.1987	1.981e+02	4.816e+01	1.130e+02	1.646e+02
1.924e-07	0.1992	1.972e+02	4.811e+01	1.126e+02	1.640e+02
1.922e-07	0.1993	1.970e+02	4.809e+01	1.125e+02	1.637e+02
1.928e-07	0.1991	1.982e+02	4.817e+01	1.130e+02	1.648e+02
1.928e-07	0.1991	1.982e+02	4.817e+01	1.130e+02	1.648e+02
1.922e-07	0.1992	1.975e+02	4.813e+01	1.127e+02	1.642e+02
1.934e-07	0.1991	1.992e+02	4.825e+01	1.135e+02	1.656e+02
1.931e-07	0.1992	1.991e+02	4.825e+01	1.135e+02	1.655e+02
1.930e-07	0.1992	1.991e+02	4.825e+01	1.135e+02	1.655e+02
1.930e-07	0.1992	1.991e+02	4.825e+01	1.134e+02	1.655e+02
1.930e-07	0.1992	1.991e+02	4.825e+01	1.134e+02	1.655e+02
1.925e-07	0.1992	1.982e+02	4.818e+01	1.131e+02	1.648e+02
1.923e-07	0.1992	1.978e+02	4.815e+01	1.129e+02	1.645e+02
1.922e-07	0.1992	1.976e+02	4.814e+01	1.128e+02	1.643e+02
1.919e-07	0.1993	1.976e+02	4.814e+01	1.128e+02	1.643e+02
1.918e-07	0.1993	1.975e+02	4.814e+01	1.128e+02	1.642e+02
1.916e-07	0.1994	1.976e+02	4.815e+01	1.128e+02	1.643e+02
1.915e-07	0.1994	1.976e+02	4.815e+01	1.128e+02	1.643e+02
1.910e-07	0.1995	1.976e+02	4.816e+01	1.129e+02	1.644e+02
1.909e-07	0.1996	1.976e+02	4.815e+01	1.128e+02	1.644e+02
1.905e-07	0.1997	1.969e+02	4.811e+01	1.126e+02	1.639e+02
1.904e-07	0.1997	1.969e+02	4.811e+01	1.126e+02	1.639e+02
1.904e-07	0.1998	1.970e+02	4.811e+01	1.126e+02	1.639e+02
1.902e-07	0.1998	1.971e+02	4.812e+01	1.126e+02	1.640e+02
1.901e-07	0.1999	1.971e+02	4.812e+01	1.126e+02	1.640e+02
1.900e-07	0.1999	1.971e+02	4.812e+01	1.126e+02	1.640e+02
1.900e-07	0.1999	1.971e+02	4.812e+01	1.126e+02	1.640e+02
1.900e-07	0.1999	1.971e+02	4.812e+01	1.126e+02	1.640e+02
1.900e-07	0.1999	1.971e+02	4.812e+01	1.126e+02	1.640e+02
1.900e-07	0.1999	1.971e+02	4.812e+01	1.126e+02	1.640e+02
1.900e-07	0.1999	1.971e+02	4.812e+01	1.126e+02	1.640e+02
1.900e-07	0.1999	1.971e+02	4.812e+01	1.126e+02	1.640e+02
1.900e-07	0.1999	1.971e+02	4.812e+01	1.126e+02	1.640e+02
1.900e-07	0.1999	1.971e+02	4.812e+01	1.126e+02	1.640e+02
1.900e-07	0.1999	1.971e+02	4.812e+01	1.126e+02	1.640e+02
1.900e-07	0.1999	1.971e+02	4.812e+01	1.126e+02	1.640e+02
1.900e-07	0.1999	1.971e+02	4.812e+01	1.126e+02	1.640e+02
1.900e-07	0.1999	1.971e+02	4.812e+01	1.126e+02	1.640e+02
1.900e-07	0.1999	1.971e+02	4.812e+01	1.126e+02	1.640e+02
1.900e-07	0.1999	1.971e+02	4.812e+01	1.126e+02	1.640e+02
1.900e-07	0.1999	1.971e+02	4.812e+01	1.126e+02	1.640e+02
1.899e-07	0.1999	1.971e+02	4.812e+01	1.126e+02	1.640e+02
1.899e-07	0.2000	1.971e+02	4.813e+01	1.126e+02	1.640e+02
1.898e-07	0.2000	1.971e+02	4.812e+01	1.126e+02	1.640e+02
1.898e-07	0.2000	1.971e+02	4.812e+01	1.126e+02	1.640e+02
1.898e-07	0.2000	1.971e+02	4.812e+01	1.126e+02	1.640e+02
1.898e-07	0.2000	1.971e+02	4.812e+01	1.126e+02	1.640e+02
1.898e-07	0.2000	1.971e+02	4.812e+01	1.126e+02	1.640e+02
1.898e-07	0.2000	1.971e+02	4.812e+01	1.126e+02	1.640e+02
1.898e-07	0.2000	1.971e+02	4.812e+01	1.126e+02	1.640e+02
1.898e-07	0.2000	1.971e+02	4.812e+01	1.126e+02	1.640e+02
1.898e-07	0.2000	1.971e+02	4.812e+01	1.126e+02	1.640e+02
1.898e-07	0.2000	1.971e+02	4.812e+01	1.126e+02	1.640e+02
1.898e-07	0.2000	1.971e+02	4.812e+01	1.126e+02	1.640e+02
1.898e-07	0.2000	1.971e+02	4.812e+01	1.126e+02	1.640e+02
1.898e-07	0.2000	1.971e+02	4.812e+01	1.126e+02	1.640e+02
1.898e-07	0.2000	1.971e+02	4.812e+01	1.126e+02	1.640e+02
1.898e-07	0.2000	1.971e+02	4.812e+01	1.126e+02	1.640e+02
1.898e-07	0.2000	1.971e+02	4.812e+01	1.126e+02	1.640e+02
1.898e-07	0.2000	1.971e+02	4.812e+01	1.126e+02	1.640e+02
1.898e-07	0.2000	1.971e+02	4.812e+01	1.126e+02	1.640e+02
1.898e-07	0.2000	1.971e+02	4.812e+01	1.126e+02	1.640e+02
1.898e-07	0.2000	1.971e+02	4.812e+01	1.126e+02	1.640e+02
1.898e-07	0.2000	1.971e+02	4.812e+01	1.126e+02	1.640e+02
1.898e-07	0.2000	1.971e+02	4.812e+01	1.126e+02	1.640e+02
1.898e-07	0.2000	1.971e+02	4.812e+01	1.126e+02	1.640e+02
1.898e-07	0.2000	1.971e+02	4.812e+01	1.126e+02	1.640e+02
1.898e-07	0.2000	1.971e+02	4.812e+01	1.126e+02	1.640e+02
1.898e-07	0.2000	1.971e+02	4.812e+01	1.126e+02	1.640e+02
1.898e-07	0.2000	1.971e+02	4.812e+01	1.126e+02	1.640e+02
1.898e-07	0.2000	1.971e+02	4.812e+01	1.126e+02	1.640e+02
1.898e-07	0.2000	1.972e+02	4.814e+01	1.127e+02	1.641e+02
1.898e-07	0.2000	1.971e+02	4.813e+01	1.126e+02	1.640e+02
1.898e-07	0.2000	1.971e+02	4.813e+01	1.126e+02	1.640e+02
1.898e-07	0.2000	1.971e+02	4.813e+01	1.126e+02	1.640e+02
1.898e-07	0.2000	1.971e+02	4.813e+01	1.126e+02	1.640e+02
1.898e-07	0.2000	1.971e+02	4.813e+01	1.126e+02	1.640e+02
1.898e-07	0.2000	1.971e+02	4.813e+01	1.126e+02	1.640e+02
1.897e-07	0.2000	1.971e+02	4.813e+01	1.127e+02	1.640e+02
1.898e-07	0.2000	1.971e+02	4.813e+01	1.127e+02	1.640e+02
1.898e-07	0.2000	1.971e+02	4.813e+01	1.126e+02	1.640e+02
1.898e-07	0.2000	1.971e+02	4.813e+01	1.126e+02	1.640e+02
1.898e-07	0.2000	1.971e+02	4.813e+01	1.126e+02	1.640e+02
1.898e-07	0.2000	1.971e+02	4.813e+01	1.126e+02	1.640e+02
1.898e-07	0.2000	1.971e+02	4.813e+01	1.126e+02	1.640e+02
1.898e-07	0.2000	1.971e+02	4.813e+01	1.127e+02	1.640e+02
1.898e-07	0.2000	1.971e+02	4.813e+01	1.127e+02	1.640e+02
1.898e-07	0.2000	1.971e+02	4.813e+01	1.127e+02	1.640e+02
1.898e-07	0.2000	1.971e+02	4.813e+01	1.127e+02	1.640e+02
1.898e-07	0.2000	1.971e+02	4.813e+01	1.127e+02	1.640e+02
1.898e-07	0.2000	1.971e+02	4.813e+01	1.127e+02	1.640e+02
1.898e-07	0.2000	1.971e+02	4.813e+01	1.127e+02	1.640e+02
1.898e-07	0.2000	1.971e+02	4.813e+01	1.127e+02	1.640e+02
